T[keV],spectrum
0.1,139975.48025088807
0.10500000000000001,120911.12334457712
0.11000000000000001,101846.76643826616
0.11500000000000002,82782.40953195521
0.12000000000000002,63718.05262564427
0.12500000000000003,44653.69571933332
0.13000000000000003,25589.338813022372
0.13500000000000004,13081.725872481351
0.14000000000000004,11366.629548163084
0.14500000000000005,9651.533223844817
0.15000000000000005,7936.436899526548
0.15500000000000005,6221.340575208282
0.16000000000000006,4506.244250890013
0.16500000000000006,2791.147926571746
0.17000000000000007,2253.8222489144596
0.17500000000000007,2096.9269128777382
0.18000000000000008,1940.0315768410162
0.18500000000000008,1783.1362408042946
0.19000000000000009,1626.2409047675728
0.1950000000000001,1469.345568730851
0.2000000000000001,1336.5589534711726
0.2050000000000001,1359.8763052428214
0.2100000000000001,1383.1936570144703
0.2150000000000001,1406.5110087861192
0.2200000000000001,1429.8283605577683
0.22500000000000012,1453.1457123294172
0.23000000000000012,1476.463064101066
0.23500000000000013,1493.4253552993769
0.24000000000000013,1504.3233403296665
0.24500000000000013,1515.2213253599562
0.2500000000000001,1526.1193103902458
0.2550000000000001,1537.0172954205354
0.2600000000000001,1547.915280450825
0.2650000000000001,1558.8132654811147
0.27000000000000013,1546.7573608416142
0.27500000000000013,1531.8537931979677
0.28000000000000014,1516.950225554321
0.28500000000000014,1502.0466579106744
0.29000000000000015,1487.1430902670277
0.29500000000000015,1472.2395226233812
0.30000000000000016,1452.8822549331771
0.30500000000000016,1421.3329833655246
0.31000000000000016,1389.783711797872
0.31500000000000017,1358.2344402302197
0.3200000000000002,1326.6851686625673
0.3250000000000002,1295.1358970949148
0.3300000000000002,1263.5866255272622
0.3350000000000002,1233.7661034248424
0.3400000000000002,1204.895049940633
0.3450000000000002,1176.0239964564237
0.3500000000000002,1147.1529429722145
0.3550000000000002,1118.2818894880052
0.3600000000000002,1089.4108360037958
0.3650000000000002,1060.6783532616912
0.3700000000000002,1037.7262500473698
0.3750000000000002,1014.7741468330483
0.3800000000000002,991.8220436187269
0.38500000000000023,968.8699404044056
0.39000000000000024,945.9178371900842
0.39500000000000024,922.9657339757628
0.40000000000000024,901.1742904965963
0.40500000000000025,881.1141644557024
0.41000000000000025,861.0540384148082
0.41500000000000026,840.9939123739143
0.42000000000000026,820.9337863330203
0.42500000000000027,800.8736602921263
0.43000000000000027,780.8135342512322
0.4350000000000003,762.8382882123971
0.4400000000000003,745.4536090410976
0.4450000000000003,728.0689298697981
0.4500000000000003,710.6842506984985
0.4550000000000003,693.299571527199
0.4600000000000003,675.9148923558995
0.4650000000000003,658.7613290583819
0.4700000000000003,642.8469402330552
0.4750000000000003,626.9325514077285
0.4800000000000003,611.0181625824019
0.4850000000000003,595.1037737570753
0.4900000000000003,579.1893849317486
0.49500000000000033,563.274996106422
0.5000000000000003,549.1435013237214
0.5050000000000003,536.5608957405515
0.5100000000000003,523.9782901573817
0.5150000000000003,511.395684574212
0.5200000000000004,498.8130789910422
0.5250000000000004,486.2304734078724
0.5300000000000004,473.64786782470264
0.5350000000000004,463.40321670627935
0.5400000000000004,453.3812279178318
0.5450000000000004,443.35923912938426
0.5500000000000004,433.33725034093675
0.5550000000000004,423.3152615524891
0.5600000000000004,413.2932727640416
0.5650000000000004,403.79862858939697
0.5700000000000004,395.5890080713753
0.5750000000000004,387.37938755335364
0.5800000000000004,379.169767035332
0.5850000000000004,370.9601465173103
0.5900000000000004,362.7505259992886
0.5950000000000004,354.54090548126686
0.6000000000000004,347.2944906737655
0.6050000000000004,340.5248626929714
0.6100000000000004,333.75523471217736
0.6150000000000004,326.9856067313833
0.6200000000000004,320.2159787505892
0.6250000000000004,313.4463507697951
0.6300000000000004,310.6645353679204
0.6350000000000005,389.06319032245574
0.6400000000000005,467.461845276991
0.6450000000000005,545.8605002315264
0.6500000000000005,624.2591551860617
0.6550000000000005,702.657810140597
0.6600000000000005,781.0564650951324
0.6650000000000005,863.5156116630017
0.6700000000000005,951.4740067150692
0.6750000000000005,1039.4324017671368
0.6800000000000005,1127.3907968192043
0.6850000000000005,1215.3491918712718
0.6900000000000005,1303.3075869233394
0.6950000000000005,1391.265981975407
0.7000000000000005,1388.9678113885043
0.7050000000000005,1364.4815684153673
0.7100000000000005,1339.9953254422305
0.7150000000000005,1315.509082469094
0.7200000000000005,1291.022839495957
0.7250000000000005,1266.5365965228202
0.7300000000000005,1241.5344577708083
0.7350000000000005,1214.1916807627895
0.7400000000000005,1186.8489037547708
0.7450000000000006,1159.506126746752
0.7500000000000006,1132.1633497387331
0.7550000000000006,1104.8205727307143
0.7600000000000006,1077.4777957226956
0.7650000000000006,1053.2535384451994
0.7700000000000006,1031.4942189187739
0.7750000000000006,1009.7348993923479
0.7800000000000006,987.9755798659222
0.7850000000000006,966.2162603394964
0.7900000000000006,944.4569408130708
0.7950000000000006,922.697621286645
0.8000000000000006,904.7691319467548
0.8050000000000006,887.1005917980934
0.8100000000000006,869.4320516494321
0.8150000000000006,851.7635115007705
0.8200000000000006,834.0949713521092
0.8250000000000006,816.4264312034476
0.8300000000000006,800.1161454187164
0.8350000000000006,786.768010108512
0.8400000000000006,773.4198747983078
0.8450000000000006,760.0717394881036
0.8500000000000006,746.7236041778992
0.8550000000000006,733.375468867695
0.8600000000000007,720.0273335574908
0.8650000000000007,710.1456115464941
0.8700000000000007,701.804517668478
0.8750000000000007,693.4634237904617
0.8800000000000007,685.1223299124455
0.8850000000000007,676.7812360344292
0.8900000000000007,668.440142156413
0.8950000000000007,660.163145392449
0.9000000000000007,652.7346723287936
0.9050000000000007,645.3061992651383
0.9100000000000007,637.8777262014828
0.9150000000000007,630.4492531378274
0.9200000000000007,623.0207800741721
0.9250000000000007,615.5923070105166
0.9300000000000007,609.1485081961059
0.9350000000000007,603.9171814050181
0.9400000000000007,598.6858546139305
0.9450000000000007,593.4545278228426
0.9500000000000007,588.2232010317549
0.9550000000000007,582.991874240667
0.9600000000000007,577.7605474495793
0.9650000000000007,572.9763932408196
0.9700000000000008,568.2863806283392
0.9750000000000008,563.596368015859
0.9800000000000008,558.9063554033786
0.9850000000000008,554.2163427908984
0.9900000000000008,549.526330178418
0.9950000000000008,544.6143545700922
1.0000000000000009,538.8363594042063
1.0050000000000008,533.0583642383205
1.010000000000001,527.2803690724344
1.0150000000000008,521.5023739065485
1.020000000000001,515.7243787406625
1.0250000000000008,509.9463835747767
1.030000000000001,503.6161544588566
1.0350000000000008,496.889205551246
1.040000000000001,490.1622566436351
1.0450000000000008,483.43530773602447
1.050000000000001,476.70835882841357
1.0550000000000008,469.981409920803
1.060000000000001,463.2544610131921
1.0650000000000008,457.2769698210515
1.070000000000001,451.3308148400103
1.0750000000000008,445.38465985896937
1.080000000000001,439.43850487792815
1.0850000000000009,433.4923498968872
1.090000000000001,427.546194915846
1.0950000000000009,421.82336671791677
1.100000000000001,416.5383474611365
1.1050000000000009,411.2533282043564
1.110000000000001,405.96830894757613
1.1150000000000009,400.68328969079613
1.120000000000001,395.3982704340159
1.1250000000000009,390.1132511772359
1.130000000000001,385.23712847517146
1.135000000000001,380.52341795605497
1.140000000000001,375.80970743693825
1.145000000000001,371.09599691782176
1.150000000000001,366.38228639870505
1.155000000000001,361.66857587958856
1.160000000000001,357.00078996533693
1.165000000000001,352.7774886195992
1.170000000000001,348.55418727386126
1.175000000000001,344.3308859281235
1.180000000000001,340.1075845823856
1.185000000000001,335.8842832366479
1.190000000000001,331.66098189090997
1.195000000000001,327.6276775814226
1.200000000000001,323.8072777522721
1.205000000000001,319.9868779231218
1.210000000000001,316.16647809397136
1.215000000000001,312.346078264821
1.220000000000001,308.52567843567056
1.225000000000001,304.70527860652027
1.230000000000001,301.1599468670828
1.235000000000001,297.66334766322444
1.240000000000001,294.166748459366
1.245000000000001,290.6701492555076
1.250000000000001,287.1735500516491
1.255000000000001,283.67695084779075
1.2600000000000011,280.1935560552332
1.265000000000001,276.755017424595
1.2700000000000011,273.31647879395666
1.275000000000001,269.87794016331844
1.2800000000000011,266.4394015326801
1.285000000000001,263.0008629020419
1.2900000000000011,259.56232427140355
1.295000000000001,256.33891220945054
1.3000000000000012,253.25574840774522
1.305000000000001,250.17258460604
1.3100000000000012,247.08942080433465
1.315000000000001,244.00625700262944
1.3200000000000012,240.9230932009241
1.325000000000001,237.83992939921882
1.3300000000000012,235.0626589481859
1.335000000000001,232.29059076502162
1.3400000000000012,229.51852258185718
1.345000000000001,226.7464543986929
1.3500000000000012,223.97438621552848
1.355000000000001,221.20231803236416
1.3600000000000012,218.52894184900342
1.365000000000001,216.03010429492505
1.3700000000000012,213.53126674084658
1.375000000000001,211.03242918676818
1.3800000000000012,208.5335916326897
1.3850000000000011,206.03475407861134
1.3900000000000012,203.53591652453287
1.3950000000000011,201.2150073710738
1.4000000000000012,198.95689647665674
1.4050000000000011,196.69878558223974
1.4100000000000013,194.44067468782265
1.4150000000000011,192.18256379340565
1.4200000000000013,189.92445289898856
1.4250000000000012,187.6912426791759
1.4300000000000013,185.64585469066378
1.4350000000000012,183.6004667021518
1.4400000000000013,181.5550787136397
1.4450000000000012,179.5096907251277
1.4500000000000013,177.4643027366156
1.4550000000000012,175.41891474810362
1.4600000000000013,173.4664585344558
1.4650000000000012,171.60881784786545
1.4700000000000013,169.75117716127505
1.4750000000000012,167.89353647468474
1.4800000000000013,166.03589578809434
1.4850000000000012,164.17825510150402
1.4900000000000013,162.32061441491362
1.4950000000000012,160.60474406110578
1.5000000000000013,158.9095145986608
1.5050000000000012,157.21428513621586
1.5100000000000013,155.51905567377088
1.5150000000000012,153.82382621132595
1.5200000000000014,152.12859674888097
1.5250000000000012,150.47103118252343
1.5300000000000014,148.92595511914664
1.5350000000000013,147.3808790557699
1.5400000000000014,145.8358029923931
1.5450000000000013,144.29072692901636
1.5500000000000014,142.74565086563956
1.5550000000000013,141.20057480226285
1.5600000000000014,139.73979817242858
1.5650000000000013,138.32879408048385
1.5700000000000014,136.91778998853903
1.5750000000000013,135.50678589659427
1.5800000000000014,134.09578180464945
1.5850000000000013,132.68477771270472
1.5900000000000014,131.2745762887953
1.5950000000000013,129.983571068137
1.6000000000000014,128.69256584747868
1.6050000000000013,127.4015606268204
1.6100000000000014,126.11055540616208
1.6150000000000013,124.81955018550379
1.6200000000000014,123.52854496484544
1.6250000000000013,122.27894319471505
1.6300000000000014,121.09558694542919
1.6350000000000013,119.91223069614338
1.6400000000000015,118.72887444685752
1.6450000000000014,117.54551819757168
1.6500000000000015,116.36216194828582
1.6550000000000014,115.17880569899998
1.6600000000000015,114.06925000676362
1.6650000000000014,112.98267606694183
1.6700000000000015,111.89610212711997
1.6750000000000014,110.80952818729818
1.6800000000000015,109.72295424747634
1.6850000000000014,108.63638030765455
1.6900000000000015,107.56205466629294
1.6950000000000014,106.56267694646182
1.7000000000000015,105.56329922663066
1.7050000000000014,104.56392150679952
1.7100000000000015,103.56454378696836
1.7150000000000014,102.56516606713721
1.7200000000000015,101.56578834730605
1.7250000000000014,100.60429659623303
1.7300000000000015,99.6780021322642
1.7350000000000014,98.75170766829542
1.7400000000000015,97.82541320432661
1.7450000000000014,96.89911874035782
1.7500000000000016,95.972824276389
1.7550000000000014,95.04652981242022
1.7600000000000016,94.17941346656758
1.7650000000000015,93.31914235079554
1.7700000000000016,92.4588712350235
1.7750000000000015,91.59860011925146
1.7800000000000016,90.7383290034794
1.7850000000000015,89.87805788770736
1.7900000000000016,89.03588743672944
1.7950000000000015,88.24161752551157
1.8000000000000016,87.44734761429368
1.8050000000000015,86.6530777030758
1.8100000000000016,85.8588077918579
1.8150000000000015,85.06453788064003
1.8200000000000016,84.27026796942214
1.8250000000000015,83.51504528755399
1.8300000000000016,82.7806477946723
1.8350000000000015,82.04625030179065
1.8400000000000016,81.31185280890897
1.8450000000000015,80.57745531602731
1.8500000000000016,79.84305782314563
1.8550000000000015,79.11029803635866
1.8600000000000017,78.43030877928851
1.8650000000000015,77.7503195222184
1.8700000000000017,77.07033026514826
1.8750000000000016,76.39034100807814
1.8800000000000017,75.710351751008
1.8850000000000016,75.0303624939379
1.8900000000000017,74.37058140796793
1.8950000000000016,73.74011873416794
1.9000000000000017,73.10965606036791
1.9050000000000016,72.47919338656791
1.9100000000000017,71.84873071276787
1.9150000000000016,71.21826803896786
1.9200000000000017,70.58780536516784
1.9250000000000016,69.99283375641267
1.9300000000000017,69.40752779941432
1.9350000000000016,68.82222184241601
1.9400000000000017,68.23691588541769
1.9450000000000016,67.65160992841936
1.9500000000000017,67.06630397142104
1.9550000000000016,66.4877559991788
1.9600000000000017,65.94368754099803
1.9650000000000016,65.3996190828173
1.9700000000000017,64.85555062463654
1.9750000000000016,64.3114821664558
1.9800000000000018,63.76741370827504
1.9850000000000017,63.22334525009431
1.9900000000000018,62.69971152621587
1.9950000000000017,62.19335902825976
2.0000000000000018,61.687006530303634
2.0050000000000017,61.180654032347526
2.0100000000000016,60.674301534391404
2.015000000000002,60.16794903643525
2.020000000000002,59.661596538479145
2.0250000000000017,59.1862553170324
2.0300000000000016,58.71362053426281
2.035000000000002,58.24098575149319
2.040000000000002,57.7683509687236
2.0450000000000017,57.29571618595403
2.0500000000000016,56.82308140318444
2.055000000000002,56.359448815262134
2.060000000000002,55.917057361249235
2.0650000000000017,55.47466590723634
2.0700000000000016,55.03227445322344
2.075000000000002,54.5898829992105
2.080000000000002,54.1474915451976
2.0850000000000017,53.7051000911847
2.0900000000000016,53.282553246475764
2.095000000000002,52.86953574385825
2.100000000000002,52.4565182412408
2.1050000000000018,52.04350073862334
2.1100000000000017,51.63048323600587
2.115000000000002,51.21746573338838
2.120000000000002,50.80589355164613
2.1250000000000018,50.419885482884006
2.1300000000000017,50.03387741412189
2.135000000000002,49.64786934535974
2.140000000000002,49.261861276597614
2.145000000000002,48.8758532078355
2.1500000000000017,48.489845139073374
2.155000000000002,48.114565899139464
2.160000000000002,47.75342542587844
2.165000000000002,47.392284952617416
2.1700000000000017,47.0311444793564
2.175000000000002,46.67000400609535
2.180000000000002,46.30886353283433
2.185000000000002,45.947723059573306
2.1900000000000017,45.60513687130741
2.195000000000002,45.2669209071932
2.200000000000002,44.928704943079026
2.205000000000002,44.590488978964856
2.2100000000000017,44.25227301485069
2.215000000000002,43.91405705073648
2.220000000000002,43.57980400005381
2.225000000000002,43.26274716301135
2.2300000000000018,42.945690325968876
2.235000000000002,42.62863348892638
2.240000000000002,42.31157665188391
2.245000000000002,41.994519814841446
2.2500000000000018,41.67746297779898
2.255000000000002,41.371457779002355
2.260000000000002,41.073953840394886
2.265000000000002,40.77644990178741
2.270000000000002,40.47894596317994
2.275000000000002,40.18144202457243
2.280000000000002,39.883938085964964
2.285000000000002,39.586434147357494
2.290000000000002,39.30170418030479
2.295000000000002,39.01774427536707
2.300000000000002,38.733784370429376
2.305000000000002,38.44982446549168
2.310000000000002,38.16586456055398
2.315000000000002,37.88190465561626
2.320000000000002,37.60304575444481
2.325000000000002,37.334973350820704
2.330000000000002,37.0669009471966
2.335000000000002,36.79882854357248
2.340000000000002,36.53075613994838
2.345000000000002,36.26268373632428
2.350000000000002,35.994611332700174
2.355000000000002,35.73780256061265
2.360000000000002,35.48584415617248
2.365000000000002,35.233885751732316
2.370000000000002,34.98192734729215
2.375000000000002,34.729968942851954
2.380000000000002,34.47801053841179
2.385000000000002,34.2272014726734
2.390000000000002,33.9901844713563
2.3950000000000022,33.75316747003917
2.400000000000002,33.516150468722074
2.405000000000002,33.27913346740497
2.410000000000002,33.04211646608787
2.4150000000000023,32.80509946477074
2.420000000000002,32.574390642060955
2.425000000000002,32.3512423569467
2.430000000000002,32.12809407183243
2.4350000000000023,31.90494578671815
2.440000000000002,31.681797501603885
2.445000000000002,31.458649216489626
2.450000000000002,31.235500931375366
2.4550000000000023,31.02308371016369
2.460000000000002,30.81282132106099
2.465000000000002,30.602558931958292
2.470000000000002,30.39229654285559
2.4750000000000023,30.182034153752866
2.480000000000002,29.971771764650168
2.485000000000002,29.764034550294234
2.490000000000002,29.565756720703956
2.4950000000000023,29.367478891113656
2.500000000000002,29.169201061523374
2.505000000000002,28.9709232319331
2.510000000000002,28.772645402342818
2.5150000000000023,28.574367572752518
2.5200000000000022,28.382657094564774
2.525000000000002,28.195536299459466
2.530000000000002,28.00841550435416
2.5350000000000024,27.82129470924884
2.5400000000000023,27.634173914143535
2.545000000000002,27.447053119038227
2.550000000000002,27.259932323932922
2.5550000000000024,27.08286019389291
2.5600000000000023,26.906135768526447
2.565000000000002,26.72941134315998
2.570000000000002,26.552686917793515
2.5750000000000024,26.375962492427043
2.5800000000000023,26.199238067060577
2.585000000000002,26.025853872282262
2.590000000000002,25.858825844448386
2.5950000000000024,25.691797816614486
2.6000000000000023,25.52476978878061
2.605000000000002,25.357741760946727
2.610000000000002,25.19071373311285
2.6150000000000024,25.023685705278957
2.6200000000000023,24.862135053648522
2.625000000000002,24.702689134540705
2.630000000000002,24.543243215432888
2.6350000000000025,24.383797296325053
2.6400000000000023,24.224351377217232
2.6450000000000022,24.064905458109415
2.650000000000002,23.906290890294613
2.6550000000000025,23.755130772407156
2.6600000000000024,23.603970654519717
2.6650000000000023,23.452810536632274
2.670000000000002,23.30165041874483
2.6750000000000025,23.150490300857378
2.6800000000000024,22.999330182969935
2.6850000000000023,22.852026123292223
2.690000000000002,22.708928672570575
2.6950000000000025,22.56583122184891
2.7000000000000024,22.422733771127263
2.7050000000000023,22.27963632040561
2.710000000000002,22.136538869683964
2.7150000000000025,21.993441418962302
2.7200000000000024,21.856803115002315
2.7250000000000023,21.72124974584995
2.730000000000002,21.585696376697587
2.7350000000000025,21.450143007545208
2.7400000000000024,21.314589638392842
2.7450000000000023,21.179036269240477
2.750000000000002,21.04513633953929
2.7550000000000026,20.916645518899777
2.7600000000000025,20.788154698260275
2.7650000000000023,20.659663877620776
2.7700000000000022,20.531173056981274
2.7750000000000026,20.40268223634176
2.7800000000000025,20.274191415702266
2.7850000000000024,20.1497504502835
